Distance,Speed,G_Long,G_Lat,Gear,Engine_RPM,Roll_Angle_deg,Time,Fuel_Cons_Accum,Tyre_Temp_C,Throttle,Brake_Press,Radius
0.0,72.0,0.48327216273255447,0.0058027795031738655,1,1957.6058000303124,0.02536782533073619,0.0,0.0,65.0,100.0,0.0,7026.756686429368
4.996426317852565,76.1444776747439,0.6105766728150813,0.00962661065120551,10,2070.289876893851,0.042084345509460754,0.23622375901115844,10.964020948271784,65.0,100.0,0.0,4737.283851114963
9.99291808090694,81.07841475228788,0.45939648159619256,0.014224819277544433,10,1763.550833070467,0.06218618691209369,0.4580752888166074,19.478438170655775,65.0,100.0,0.0,3634.877097765157
14.989481644291253,84.60126227784691,0.46528138019165977,0.014952509803076209,11,1840.1769080555425,0.06536740827961678,0.6706918425638633,28.161905118341885,65.0,100.0,0.0,3765.0052061757287
19.98612238501822,88.02569923998824,0.4739661716875846,0.015607984792490823,11,1914.662437599165,0.06823292730046554,0.8750401956235292,37.0624263188859,65.0,100.0,0.0,3904.793979786037
24.982844735782237,91.38226264964108,0.48437301936901717,0.016196482529401982,11,1987.671637587009,0.07080564401136769,1.071885840950972,46.21030486899289,65.0,100.0,0.0,4055.357060536414
29.979652218763192,94.68972993692137,0.49556898609682054,0.016719625880845503,11,2059.612939198013,0.07309265304817436,1.2618589980263453,55.62041448025515,65.0,100.0,0.0,4217.986559001466
34.97654747943478,97.95819638901288,0.5066935806183184,0.017176263448210174,11,2130.7059267960003,0.07508892087844835,1.4454967496543996,65.29327490495078,65.0,100.0,0.0,4394.190278953264
39.9735323203754,101.19099676166175,0.3187242890142742,0.017563070215470412,11,1716.7980454861392,0.07677991163610809,1.623270919324421,71.8816893549346,65.0,100.0,0.0,4585.738664565918
44.970607735079824,103.17266701082607,0.3179908094544694,0.017461905806921744,12,1750.4188983232398,0.07633765443085909,1.7976336843293064,78.50642403383544,65.0,100.0,0.0,4794.724567795209
49.96777394177018,105.11258711001976,0.3178726513938983,0.017298837623084935,12,1783.3314215839735,0.07562477447353692,1.9687815823946033,85.17772025487592,65.0,100.0,0.0,5023.640115049758
54.96503041720478,107.01668037169648,0.3182704356774929,0.017075256447089605,12,1815.6361096954006,0.0746473518062121,2.136887369726823,91.90424088145184,65.0,100.0,0.0,5275.4766663254795
59.962375930483695,108.88983629414925,0.31909826308973427,0.01679213957373735,12,1847.4159174794077,0.07340965883727266,2.302104294098035,98.69328184450299,65.0,100.0,0.0,5553.856387156786
64.95980857685012,110.73609172068804,0.32028045050405285,0.016450120812785237,12,1878.739333684266,0.07191446637253701,2.4645694601280734,105.55093081875904,65.0,100.0,0.0,5863.207746498362
69.95732581148653,112.55876995042048,0.32174911556709684,0.01604954756787433,12,1909.6627411265802,0.07016329314537784,2.624406512830548,112.48218683344074,65.0,100.0,0.0,6209.003057659204
74.95492448330505,114.36058908939275,0.32344237816169097,0.01559052844430825,12,1940.2322549677474,0.06815661394212308,2.781727801237722,119.4910508244375,65.0,100.0,0.0,6598.085253855975
79.95260086873182,116.1437476231287,0.32530301996022387,0.015072973865666995,12,1970.4851745305443,0.06589403716440596,2.9366361398761214,126.58059456003933,65.0,100.0,0.0,7039.125619441074
84.95035070548421,117.90999295497883,0.3272774913892631,0.014496631501077871,12,2000.451146115065,0.06337445970543072,3.0892262551107,133.75301358063206,65.0,100.0,0.0,7543.278086406083
89.94816922634153,119.66067711243107,0.3293151873837966,0.013861117821467829,12,2030.1531081073626,0.06059620490343054,3.2395859815409733,141.00966852339022,65.0,100.0,0.0,8125.136168325889
94.94605119290853,121.39680274036076,0.3313679349858021,0.01316594675014022,12,2059.6080712971047,0.05755714779247639,3.3877972578966005,148.35111828619085,65.0,100.0,0.0,8804.169484893633
99.94399092937186,123.11906172592677,0.3333896506231858,0.012410556110151212,12,2088.8277741843576,0.05425483072162559,3.5339369603849202,155.77714780805798,65.0,100.0,0.0,9606.945853063551
104.94198235624975,124.82786823668907,0.33533613502469245,0.011594332370656605,12,2117.8192435015385,0.05068657153773374,3.678077602942749,163.28679273026646,65.0,100.0,0.0,10570.690391631228
109.94001902413494,126.52338753676582,0.3371649806467401,0.010716634038317808,12,2146.5852831059497,0.04684956584491517,3.820287927489728,170.87836280052,65.0,100.0,0.0,11749.22479721849
114.93809414743109,128.2055616318967,0.33883557118951874,0.00977681391654472,12,2175.1249090717874,0.04274098431456221,3.960633402481896,178.54946555609638,65.0,100.0,0.0,13223.376786519015
119.9362006380836,129.87413255343802,0.4923753671465441,0.004855418468619793,12,3000.0,0.02122627743346239,4.099176644408425,188.85547080321498,65.0,100.0,0.0,27324.02316769184
124.9343311393022,132.26129619885484,0.5297408052494978,0.0021738993921653986,4,3000.0,0.009503566357619201,4.235219994364213,199.86519949178503,65.0,100.0,0.0,63292.477978716546
129.93227675959963,134.7823189197104,0.5351166767166067,0.009608872136913287,4,3000.0,0.04200679861457258,4.368713796646907,211.04566703212706,65.0,100.0,0.0,14870.289545496356
134.93011189673263,137.28187581459014,0.531760337884436,0.012121997817031438,4,3000.0,0.0529933496721399,4.499774116058471,222.25093972824448,65.0,100.0,0.0,12228.641101716892
139.9278163746483,139.72140270199407,0.5260088704603406,0.0029164653594061433,4,3000.0,0.01274981821730286,4.62854276404342,233.4401641176217,65.0,100.0,0.0,52649.595953090764
144.92545543953068,142.0933131756907,0.5195379290181827,0.01154393503497943,4,3000.0,-0.05046625111923537,4.755160267932087,244.600506079694,65.0,100.0,0.0,13756.862565640431
149.92316607444275,144.3978367750536,0.5127433520305287,0.030495005211895906,4,3000.0,-0.1333140377386637,4.879758798543812,255.7258423350224,65.0,100.0,0.0,5377.97344415952
154.92114290404044,146.6368339828046,0.5056776234714103,0.0525830363642986,4,3000.0,-0.22987557619924762,5.002461369909078,266.8110109770696,65.0,100.0,0.0,3216.373543424149
159.91963124692347,148.8122075097131,0.498145098678117,0.07710331704228329,4,3000.0,-0.3370701020225226,5.123382619150034,277.8476268890007,65.0,100.0,0.0,2259.071867321561
164.9189208454079,150.92485826798676,0.48974089376423907,0.10780718926001025,4,3000.0,-0.471297236961998,5.242630321358156,288.82051191305453,65.0,100.0,0.0,1661.8806116538879
169.91957165862982,152.97398048968452,0.4814916965280377,0.14730884028769956,4,3000.0,-0.6439853397923795,5.360312706754494,299.7322149873071,65.0,100.0,0.0,1249.4886502804263
174.92330668812332,154.96339238318112,0.4759812777892768,0.1729052806532539,4,3000.0,-0.7558844784597776,5.4765559421996395,310.6313557151414,65.0,100.0,0.0,1092.3855942889809
179.93215089693183,156.90721643251905,0.4723808106464423,0.15409318530544708,4,3000.0,-0.6736442436503557,5.591476336313352,321.5537483210285,65.0,100.0,0.0,1256.6906804591488
184.94482158429562,158.8142629937481,0.468166435752793,0.10768544402894366,4,3000.0,-0.4707650072340102,5.705103501369806,332.4857624892853,65.0,100.0,0.0,1842.247581092759
189.9590079737966,160.68252702970798,0.4628417418733681,0.07632503725881636,4,3000.0,-0.3336677212161118,5.817443475951275,343.4029950765803,65.0,100.0,0.0,2660.7022232158697
194.97508323480554,162.5091143883897,0.4568509046080419,0.07341826616268454,4,3000.0,-0.3209602830991245,5.928562603069738,354.29420843849675,65.0,100.0,0.0,2829.2890203049988
199.99586354130352,164.2938084562838,0.45083000746248136,0.08466690431865609,4,3000.0,-0.3701355943087379,6.0385777598989865,365.1641152371544,65.0,100.0,0.0,2507.5794621542036
205.0258891820861,166.03936862887488,0.44528340119719234,0.09159231454918428,4,3000.0,-0.40041118844007473,6.147636788828998,376.02968872182333,65.0,100.0,0.0,2367.4951818313807
210.07050933602886,167.75054891096917,-0.06522204074611408,0.08528548662832973,4,3000.0,-0.37283983078298294,6.255896539226789,379.43450363559145,65.0,0.0,100.0,2595.2473671440184
215.13543389844764,167.49999460046052,-0.8154943934760427,0.06006648990028243,4,3000.0,-0.26259075037873947,6.364754622883453,382.8428185433739,65.0,0.0,100.0,3673.866170001709
220.22620994510666,164.31866865976943,-0.8154943934760465,0.011026034471777768,4,3000.0,-0.048202161811895024,6.47628664731775,386.1396363342125,65.0,0.0,100.0,19261.07224587428
225.34552747781748,161.05614917331215,-0.8154943934760459,0.060004196104041306,4,3000.0,0.26231842258455584,6.590715951708524,389.3245952028849,65.0,0.0,100.0,3400.157160675171
230.49163515868145,157.70854858831282,-0.8154943934760457,0.1477034592338617,4,3000.0,0.6457104828023741,6.7081857262828315,392.39451109676685,65.0,0.0,100.0,1324.4811878104404
235.6590610215668,154.2740058172611,-0.8154943934760448,0.2452601158198526,4,3000.0,1.0721957943277258,6.828768147202286,395.3443405347691,65.0,0.0,100.0,763.2812162068249
240.8437246214964,150.7493848306616,-0.8154943934760446,0.3458480858269762,4,3000.0,1.5119330016640333,6.9525815145384975,398.1703188058869,65.0,0.0,100.0,516.8347567024693
246.04840860776585,147.1262510751568,-0.8154943934760468,0.44142581410202875,4,3000.0,1.9297670956639779,7.079933786574564,400.8724836618671,65.0,0.0,100.0,385.69907928812927
251.28179607386411,143.39085929884072,-0.8154943934760421,0.521518444630369,4,3000.0,2.2799054837262562,7.211324273876749,403.4533348433665,65.0,0.0,100.0,310.0982054677
256.5553493175988,139.5256769553157,-0.8154943934760419,0.5787704531654175,4,3000.0,2.5301922560491663,7.347390925490451,405.91567898089653,65.0,0.0,100.0,264.56227465104234
261.86971185081126,135.51910682613058,-0.8154943934760457,0.6167750450493578,4,3000.0,2.696335713361372,7.488564414363209,408.25661409999907,65.0,0.0,100.0,234.20720901123644
267.21082387196566,131.36930892048423,-0.8154943934760429,0.644864490769209,4,3000.0,2.819133443702261,7.634930437250596,410.4674507493105,65.0,0.0,100.0,210.49673228326753
272.55297571649334,127.08322753126929,-0.8154943934760416,0.6693387410969349,4,3000.0,2.926126740117346,7.786262340082287,412.5367811516811,65.0,0.0,100.0,189.78264743444046
277.86759358744166,122.67072820377531,-0.8154943934760454,0.6920867165198897,4,3000.0,3.025573335812007,7.942229656943989,414.45496870383124,65.0,0.0,100.0,171.02018191669538
283.1289701967227,118.14020697605027,-0.8154943934760435,0.7135801554653987,4,3000.0,3.1195355145624304,8.102555732868773,416.2162632185785,65.0,0.0,100.0,153.84333360012238
288.3144504799678,113.49822603375921,-0.8154943934760465,0.7341182169988028,4,3000.0,3.2093211004745505,8.267031687005092,417.81841727086714,65.0,0.0,100.0,138.01876504982835
293.40450348003355,108.74913297455134,-0.8154943934760451,0.7535648311703131,4,3000.0,3.2943352409062645,8.435531336602528,419.26223060646413,65.0,0.0,100.0,123.44030200851287
298.3828090473668,103.89452574738687,-0.8154943934760451,0.7714237555978235,4,2095.2543258565656,3.372408528926963,8.60803224474446,420.5510854798678,65.0,0.0,100.0,110.05716270497926
303.236367439107,98.93249522863141,-0.7985083472054895,0.7874249438550442,12,1974.8083916267776,3.4423604112225745,8.78464570395102,421.6904831380739,65.0,0.0,100.0,97.76755368412896
307.9552045231033,93.96553531330342,-0.7680927809932899,0.8043623909416997,12,1855.8090974054403,3.5164053062608667,8.965433409206412,422.6898140151042,65.0,0.0,100.0,86.33987572183271
312.5296497963649,89.08479608222893,-0.7279768157966647,0.8257131504148769,12,1736.5191415769018,3.609743737731143,9.150291024736463,423.56054250527376,65.0,0.0,100.0,75.59689712459708
316.95018335317974,84.36724256069121,-0.6731819817403647,0.8540598678940682,12,2073.1259129002246,3.733666174783687,9.338917798843552,424.31521676897876,65.0,0.0,100.0,65.55191539296128
321.2090114196713,79.93017692630262,-0.601764963831691,0.8911470189928351,11,1922.7909863069667,3.8957988855946954,9.530732475464445,424.9678193606286,65.0,0.0,100.0,56.38949185076624
325.30404242669215,75.90939659698917,-0.5187084690172066,0.9347229624322266,11,1782.9947565253808,4.086298442089631,9.724939151925629,425.53377893472026,65.0,0.0,100.0,48.48798736658635
329.2450530236024,72.40468273890082,-0.4286128191324933,0.9779558177613867,11,2078.3229493081317,4.275298131279831,9.920888331069733,426.0293181748212,65.0,0.0,100.0,42.16383122690827
333.05422653218994,69.47872323899158,-0.3496447540889386,1.0162149616329765,10,1956.4332376610826,4.442554405364888,10.118258460969004,426.47035164721274,65.0,0.0,100.0,37.363200000804845
336.7642086246524,67.0630550522626,-0.03183498732211134,1.0427035570448764,10,1163.304723618274,4.558353749678778,10.31741335366598,426.87055029696864,65.0,0.0,0.0,33.925933275581876
340.41384887691055,66.84242717534735,-0.031834987322111534,1.0900000000000003,12,1134.0430670968858,4.765118094764519,10.513975708795046,427.2616537218323,65.0,0.0,0.0,32.24065944971976
344.0488656375261,66.62195706656412,0.14387812941499376,1.0586855789925818,12,1130.3025895449287,4.628221843232846,10.710398343530036,429.4091329547951,65.0,100.0,0.0,32.97568047392799
347.71940159392216,67.62226260957051,0.32989580739470514,0.9900833426095015,12,1147.2736902957909,4.328315643296765,10.905806319144796,433.8877915420425,65.0,100.0,0.0,36.327342883208246
351.46891710628455,69.90919802527569,0.4437424582885259,0.9108538710545561,12,1186.0736465911439,3.9819506996774057,11.098889006770882,439.9280230066548,65.0,100.0,0.0,42.20325255905443
355.32790070992445,72.95694289635715,0.5088951260383607,0.824338544879903,12,1983.6240911998482,3.6037344187330995,11.289307360687372,447.0312362631652,65.0,100.0,0.0,50.7871261948036
359.31325261928544,76.40953934101695,0.5480288398565911,0.7343626823802556,10,2077.496630439154,3.2103898219540956,11.477075367109547,454.9413444046409,65.0,100.0,0.0,62.533185757280584
363.4301136213013,80.07560721638852,0.5730483603756934,0.6459727435411646,10,2177.173237885435,2.8239783568556724,11.66215919129095,463.51584072779167,65.0,100.0,0.0,78.07505138931084
367.67537021268794,83.84919583376826,0.46373046588244554,0.5611661756792387,10,1823.818578800692,2.4532321999072892,11.844425980817357,470.8585580378225,65.0,100.0,0.0,98.54448147961119
372.0396069767427,86.86367080089666,0.47075263282275115,0.4708686276226999,11,1889.3869530195443,2.0584813006806084,12.025298515972008,478.5640951207273,65.0,100.0,0.0,126.03831604044358
376.5085334952874,89.89010527463317,0.47957422926557974,0.38619816889100855,11,1955.2154605661922,1.6883301676582279,12.204274115317546,486.6445161153227,65.0,100.0,0.0,164.5657899759973
381.06453676474484,92.9290456660474,0.48954628247182014,0.3047956666231534,11,2021.3159865237355,1.3324654552585338,12.380770189849379,495.09602878308874,65.0,100.0,0.0,222.8538581809209
385.68819521437297,95.97582051096639,0.4999861766763949,0.2237528579713869,11,2087.586921054845,0.9781732039217714,12.554201063688684,503.899358016153,65.0,100.0,0.0,323.8031484001434
390.3591899171674,99.02121369013517,0.5101834250714665,0.13989058351271547,11,2153.827802731662,0.6115551842051443,12.724019027975412,513.0196796776447,65.0,100.0,0.0,551.3076255994514
395.0570592977373,102.05214954285059,0.3183250724577509,0.04979102442276508,11,1731.4082920389242,0.21766982700346785,12.889741453674544,519.2271250665872,65.0,100.0,0.0,1645.2020534226813
399.76187571589537,103.90119962513674,0.3178804015794934,0.04897100163796769,12,1762.77912214105,-0.21408495965488325,13.052755347320401,525.4796806047167,65.0,100.0,0.0,1733.9162940653505
404.45488240867155,105.71088308886182,0.31794575136355047,0.15561849882536266,12,1793.4820614627124,-0.6803124079200245,13.212576395071864,531.7602717169468,65.0,100.0,0.0,564.8123330095887
409.1197655943846,107.47988947258591,0.31843715350676843,0.27159503649194144,12,1823.4948768239763,-1.1873233237027339,13.368824969116503,538.0531383276236,65.0,100.0,0.0,334.5481130054027
413.7459703437631,109.20857815801732,0.3192779772903219,0.400641593154575,12,1852.8236654650532,-1.7514720229872935,13.521325234010208,544.3484857982988,65.0,100.0,0.0,234.14423141953407
418.32767899750263,110.89849926423287,0.26554980904760567,0.550241172797704,12,1881.4947265774367,-2.40547171466311,13.670057193981664,549.795517654668,65.0,100.0,0.0,175.80217553519708
422.85352837907277,112.26787095388086,-0.7983211800678833,0.7204039787800137,12,1909.490926448933,-3.1493670044266033,13.815183824024784,551.1637133142292,65.0,0.0,100.0,137.61344335281095
427.3104245222116,108.16355620973799,-0.6730796843237008,0.8227586141348712,12,1936.7779967592608,-3.5968274860894063,13.963522383494734,552.4143511615407,65.0,0.0,100.0,111.84471528734105
431.69296907293636,104.63887171607648,-0.5332984141374805,0.9132358859910445,12,1939.5105620593006,-3.992364078095626,14.114299624532066,553.5652829199958,65.0,0.0,100.0,94.30378379096426
436.00526556822103,101.80631808113552,-0.38067272463400065,0.9884366610785106,12,1813.8062492666693,-4.321116898379664,14.266787875513234,554.6372839772803,65.0,0.0,100.0,82.47581356325479
440.26041979579895,99.76294930210409,-0.2169870071311711,1.0450599140203904,12,1728.5791500148048,-4.5686549600106545,14.420337417968044,555.6530437356018,65.0,0.0,100.0,74.90716505424204
444.477574230448,98.58989312345443,-0.06873382197134593,1.0799425492831587,12,2154.40849152684,-4.721150259536975,14.574326386651943,556.6361974744589,65.0,0.0,100.0,70.79296957331277
448.6807075578662,98.21663595028713,-0.06873380206181288,1.0899999999999999,11,2136.327291063865,-4.765118094764518,14.728386641641375,557.6086768831447,65.0,0.0,100.0,69.60967449232231
452.89720659711156,97.8407612061273,-0.06820872065964782,1.0640763301120053,11,2128.1515735166176,-4.651788417272789,14.883530534167965,558.5767959857058,65.0,0.0,100.0,70.76081954383018
457.15517565857067,97.46263514201424,0.0932678768654278,1.013497325438081,11,2119.926887113836,-4.430673802238939,15.040808126744004,560.88371022023,65.0,100.0,0.0,73.71904203007225
461.481548174419,97.98759225687101,0.26172372834687596,0.960501968029073,11,2131.3453214784004,-4.198995695332354,15.199756221072363,565.6916101590207,65.0,100.0,0.0,78.62667397180597
465.9013150486302,99.47714850008417,0.3796121761509348,0.8954908144858158,11,2163.7449208249054,-3.914788517249337,15.359704118524881,572.3883905456814,65.0,100.0,0.0,86.91835757542317
470.43475733677417,101.65283051544745,0.31849439302907645,0.8015872878295565,11,1724.6334785899985,-3.5042734768530583,15.520254416579181,578.3723122643357,65.0,100.0,0.0,101.39443556293165
475.0925923266226,103.49161206944915,0.3179323845458059,0.6642340568260262,12,1755.83009369422,-2.9038107553582946,15.682279199343235,584.5537560816636,65.0,100.0,0.0,126.82800346355405
479.8727592177687,105.34207874058923,0.3178948585233286,0.5086093444995394,12,1787.2249575251703,-2.223471184074381,15.84563842875908,590.9412495000621,65.0,100.0,0.0,171.61111945767416
484.7593871487079,107.20052829937875,0.31833348924189603,0.36130526810530106,12,1818.7552583648717,-1.5795066704424914,16.009740796820665,597.5245124983626,65.0,100.0,0.0,250.17594467894705
489.73197472152236,109.06170705538811,0.31919384098787856,0.23905867339900713,12,1850.3318625379002,-1.045085147086248,16.173880124412893,604.2859865860455,65.0,100.0,0.0,391.3506577307993
494.77171910547094,110.92113013821972,0.3204167989533783,0.14061547372601296,12,1881.8786801056326,-0.6147241635373477,16.337447514680253,611.2089680932926,65.0,100.0,0.0,688.2107441072513
499.86373445238405,112.77572523331318,0.3219413320031522,0.05235337549337308,12,1913.3435864344426,-0.22887157512428744,16.49999362299357,618.2805527120994,65.0,100.0,0.0,1910.7882419920452
504.99426913408314,114.62267871291198,0.32370554758543557,0.03917567551043642,12,1944.678845749532,0.17126304610037046,16.661130363658803,625.4877823835823,65.0,100.0,0.0,2637.853089027939
510.1483146548336,116.45853112381312,0.3256467565568908,0.1397876500397463,12,1975.8257652552227,0.6111051932376195,16.820453718467178,632.8141613091865,65.0,100.0,0.0,763.132242975533
